[Header]
Application Name,LabSolutions
Version,5.128 SP1
Data File Name,C:\LabSolutions\Sample\LC\Demo_Data-003.lcd
Output Date,2026/03/04
Output Time,15:45:34

[Configuration]
Instrument Name,‘•’u1
Instrument #,-1
Line #,1
# of Detectors,1
Detector ID,Detector A
Detector Name,ŚźŹoŠíA
# of Channels,1

[Peak Table(Detector A)]
# of Peaks,4
Peak#,R.Time,I.Time,F.Time,Area,Height,A/H,Conc.,Mark,ID#,Name,k',Plate #,Plate Ht.,Tailing,Resolution,Sep.Factor,Area Ratio,Height Ratio,Conc. %,Norm Conc.
1,2.649,2.508,2.850,292783,51586,5.676,4.002,   ,1,Methyl paraben,0.000,4243,35.350,1.198,0.000,0.000,0,0,24.992,24.992
2,3.237,3.083,3.425,322020,60349,5.336,4.007,   ,2,Ethyl paraben,0.222,6996,21.441,1.171,3.704,0.000,0,0,25.026,25.026
3,3.950,3.817,4.125,213341,45215,4.718,4.002,   ,3,Propyl paraben,0.491,12984,11.552,1.182,4.858,2.212,0,0,24.991,24.991
4,4.645,4.517,4.808,227691,52643,4.325,4.002,   ,4,Butyl paraben,0.753,21288,7.046,1.190,5.225,1.534,0,0,24.992,24.992

[LC Chromatogram(Detector A-Ch1)]
Interval(msec),500
# of Points,1201
Start Time(min),0.000
End Time(min),10.000
Intensity Units,mV
Intensity Multiplier,0.001
Wavelength(nm),254
R.Time (min),Intensity
0.00000,10
0.00833,10
0.01667,0
0.02500,1
0.03333,0
0.04167,0
0.05000,-0
0.05833,1
0.06667,2
0.07500,3
0.08333,3
0.09167,2
0.10000,0
0.10833,-0
0.11667,-0
0.12500,-0
0.13333,-1
0.14167,-1
0.15000,-0
0.15833,0
0.16667,0
0.17500,-1
0.18333,-1
0.19167,-1
0.20000,-1
0.20833,-1
0.21667,0
0.22500,1
0.23333,1
0.24167,1
0.25000,0
0.25833,-1
0.26667,-1
0.27500,-1
0.28333,-1
0.29167,-1
0.30000,-2
0.30833,-2
0.31667,-1
0.32500,-1
0.33333,-0
0.34167,-0
0.35000,-0
0.35833,-0
0.36667,1
0.37500,1
0.38333,2
0.39167,2
0.40000,3
0.40833,4
0.41667,5
0.42500,7
0.43333,7
0.44167,8
0.45000,8
0.45833,7
0.46667,8
0.47500,8
0.48333,10
0.49167,10
0.50000,11
0.50833,11
0.51667,10
0.52500,11
0.53333,12
0.54167,13
0.55000,14
0.55833,15
0.56667,16
0.57500,17
0.58333,19
0.59167,20
0.60000,20
0.60833,19
0.61667,19
0.62500,19
0.63333,20
0.64167,22
0.65000,22
0.65833,22
0.66667,21
0.67500,19
0.68333,18
0.69167,18
0.70000,17
0.70833,16
0.71667,15
0.72500,13
0.73333,12
0.74167,12
0.75000,11
0.75833,11
0.76667,10
0.77500,9
0.78333,9
0.79167,9
0.80000,9
0.80833,9
0.81667,10
0.82500,10
0.83333,10
0.84167,9
0.85000,8
0.85833,8
0.86667,8
0.87500,9
0.88333,9
0.89167,9
0.90000,9
0.90833,8
0.91667,7
0.92500,6
0.93333,7
0.94167,7
0.95000,8
0.95833,8
0.96667,8
0.97500,9
0.98333,9
0.99167,9
1.00000,8
1.00833,7
1.01667,7
1.02500,7
1.03333,8
1.04167,9
1.05000,11
1.05833,12
1.06667,13
1.07500,14
1.08333,16
1.09167,18
1.10000,18
1.10833,18
1.11667,19
1.12500,19
1.13333,20
1.14167,21
1.15000,22
1.15833,24
1.16667,25
1.17500,25
1.18333,24
1.19167,22
1.20000,20
1.20833,19
1.21667,18
1.22500,17
1.23333,16
1.24167,15
1.25000,14
1.25833,14
1.26667,15
1.27500,15
1.28333,15
1.29167,16
1.30000,17
1.30833,16
1.31667,15
1.32500,15
1.33333,15
1.34167,16
1.35000,17
1.35833,17
1.36667,16
1.37500,17
1.38333,16
1.39167,15
1.40000,14
1.40833,14
1.41667,14
1.42500,15
1.43333,16
1.44167,17
1.45000,20
1.45833,23
1.46667,25
1.47500,28
1.48333,31
1.49167,35
1.50000,38
1.50833,41
1.51667,43
1.52500,44
1.53333,43
1.54167,43
1.55000,67
1.55833,164
1.56667,348
1.57500,573
1.58333,791
1.59167,965
1.60000,1058
1.60833,1106
1.61667,1181
1.62500,1267
1.63333,1291
1.64167,1219
1.65000,1081
1.65833,929
1.66667,801
1.67500,691
1.68333,545
1.69167,309
1.70000,-5
1.70833,-323
1.71667,-567
1.72500,-696
1.73333,-712
1.74167,-646
1.75000,-532
1.75833,-403
1.76667,-284
1.77500,-185
1.78333,-110
1.79167,-55
1.80000,-18
1.80833,6
1.81667,20
1.82500,28
1.83333,33
1.84167,36
1.85000,37
1.85833,39
1.86667,41
1.87500,42
1.88333,42
1.89167,43
1.90000,43
1.90833,43
1.91667,42
1.92500,43
1.93333,42
1.94167,42
1.95000,42
1.95833,41
1.96667,40
1.97500,39
1.98333,38
1.99167,38
2.00000,38
2.00833,38
2.01667,37
2.02500,37
2.03333,37
2.04167,39
2.05000,40
2.05833,41
2.06667,41
2.07500,40
2.08333,38
2.09167,35
2.10000,31
2.10833,28
2.11667,26
2.12500,26
2.13333,27
2.14167,30
2.15000,36
2.15833,43
2.16667,49
2.17500,54
2.18333,58
2.19167,59
2.20000,56
2.20833,53
2.21667,51
2.22500,48
2.23333,44
2.24167,42
2.25000,40
2.25833,38
2.26667,38
2.27500,37
2.28333,35
2.29167,35
2.30000,35
2.30833,35
2.31667,36
2.32500,35
2.33333,35
2.34167,35
2.35000,33
2.35833,32
2.36667,30
2.37500,30
2.38333,29
2.39167,29
2.40000,28
2.40833,28
2.41667,29
2.42500,29
2.43333,29
2.44167,30
2.45000,32
2.45833,34
2.46667,37
2.47500,39
2.48333,43
2.49167,47
2.50000,52
2.50833,58
2.51667,68
2.52500,89
2.53333,135
2.54167,235
2.55000,450
2.55833,904
2.56667,1802
2.57500,3440
2.58333,6170
2.59167,10301
2.60000,15951
2.60833,22922
2.61667,30645
2.62500,38269
2.63333,44841
2.64167,49532
2.65000,51807
2.65833,51508
2.66667,48846
2.67500,44318
2.68333,38575
2.69167,32300
2.70000,26086
2.70833,20376
2.71667,15439
2.72500,11384
2.73333,8201
2.74167,5799
2.75000,4051
2.75833,2818
2.76667,1972
2.77500,1407
2.78333,1038
2.79167,804
2.80000,657
2.80833,567
2.81667,513
2.82500,482
2.83333,465
2.84167,457
2.85000,455
2.85833,456
2.86667,458
2.87500,461
2.88333,464
2.89167,469
2.90000,474
2.90833,481
2.91667,489
2.92500,496
2.93333,503
2.94167,510
2.95000,518
2.95833,527
2.96667,536
2.97500,545
2.98333,556
2.99167,569
3.00000,583
3.00833,598
3.01667,619
3.02500,644
3.03333,676
3.04167,713
3.05000,754
3.05833,797
3.06667,841
3.07500,883
3.08333,921
3.09167,955
3.10000,984
3.10833,1012
3.11667,1048
3.12500,1109
3.13333,1238
3.14167,1516
3.15000,2093
3.15833,3226
3.16667,5282
3.17500,8694
3.18333,13837
3.19167,20843
3.20000,29420
3.20833,38798
3.21667,47825
3.22500,55240
3.23333,59979
3.24167,61432
3.25000,59556
3.25833,54830
3.26667,48090
3.27500,40317
3.28333,32426
3.29167,25122
3.30000,18840
3.30833,13759
3.31667,9862
3.32500,7005
3.33333,4994
3.34167,3627
3.35000,2727
3.35833,2151
3.36667,1791
3.37500,1571
3.38333,1440
3.39167,1363
3.40000,1320
3.40833,1297
3.41667,1285
3.42500,1281
3.43333,1281
3.44167,1286
3.45000,1292
3.45833,1300
3.46667,1308
3.47500,1317
3.48333,1326
3.49167,1337
3.50000,1349
3.50833,1361
3.51667,1375
3.52500,1389
3.53333,1402
3.54167,1415
3.55000,1429
3.55833,1444
3.56667,1459
3.57500,1473
3.58333,1487
3.59167,1502
3.60000,1517
3.60833,1532
3.61667,1547
3.62500,1561
3.63333,1575
3.64167,1589
3.65000,1603
3.65833,1617
3.66667,1630
3.67500,1643
3.68333,1656
3.69167,1667
3.70000,1680
3.70833,1693
3.71667,1705
3.72500,1716
3.73333,1727
3.74167,1739
3.75000,1750
3.75833,1761
3.76667,1771
3.77500,1780
3.78333,1789
3.79167,1797
3.80000,1805
3.80833,1814
3.81667,1826
3.82500,1840
3.83333,1861
3.84167,1895
3.85000,1958
3.85833,2089
3.86667,2366
3.87500,2951
3.88333,4120
3.89167,6277
3.90000,9869
3.90833,15201
3.91667,22181
3.92500,30139
3.93333,37876
3.94167,43971
3.95000,47244
3.95833,47150
3.96667,43917
3.97500,38391
3.98333,31707
3.99167,24932
4.00000,18840
4.00833,13839
4.01667,10023
4.02500,7282
4.03333,5410
4.04167,4184
4.05000,3410
4.05833,2935
4.06667,2652
4.07500,2487
4.08333,2393
4.09167,2341
4.10000,2314
4.10833,2302
4.11667,2297
4.12500,2296
4.13333,2298
4.14167,2301
4.15000,2306
4.15833,2312
4.16667,2318
4.17500,2323
4.18333,2329
4.19167,2337
4.20000,2345
4.20833,2352
4.21667,2359
4.22500,2365
4.23333,2373
4.24167,2379
4.25000,2386
4.25833,2394
4.26667,2402
4.27500,2410
4.28333,2416
4.29167,2423
4.30000,2431
4.30833,2438
4.31667,2447
4.32500,2456
4.33333,2466
4.34167,2475
4.35000,2485
4.35833,2494
4.36667,2503
4.37500,2510
4.38333,2518
4.39167,2524
4.40000,2531
4.40833,2538
4.41667,2544
4.42500,2550
4.43333,2555
4.44167,2561
4.45000,2567
4.45833,2574
4.46667,2580
4.47500,2587
4.48333,2595
4.49167,2603
4.50000,2610
4.50833,2619
4.51667,2630
4.52500,2646
4.53333,2669
4.54167,2707
4.55000,2778
4.55833,2921
4.56667,3228
4.57500,3896
4.58333,5292
4.59167,7979
4.60000,12603
4.60833,19589
4.61667,28704
4.62500,38774
4.63333,47848
4.64167,53858
4.65000,55456
4.65833,52524
4.66667,46106
4.67500,37855
4.68333,29388
4.69167,21851
4.70000,15805
4.70833,11328
4.71667,8220
4.72500,6171
4.73333,4878
4.74167,4090
4.75000,3624
4.75833,3357
4.76667,3208
4.77500,3126
4.78333,3082
4.79167,3060
4.80000,3050
4.80833,3046
4.81667,3047
4.82500,3050
4.83333,3054
4.84167,3058
4.85000,3063
4.85833,3071
4.86667,3078
4.87500,3086
4.88333,3094
4.89167,3103
4.90000,3113
4.90833,3125
4.91667,3139
4.92500,3154
4.93333,3168
4.94167,3178
4.95000,3187
4.95833,3193
4.96667,3199
4.97500,3204
4.98333,3211
4.99167,3218
5.00000,3226
5.00833,3236
5.01667,3248
5.02500,3260
5.03333,3274
5.04167,3286
5.05000,3298
5.05833,3311
5.06667,3323
5.07500,3336
5.08333,3349
5.09167,3361
5.10000,3372
5.10833,3384
5.11667,3396
5.12500,3409
5.13333,3421
5.14167,3433
5.15000,3444
5.15833,3455
5.16667,3466
5.17500,3476
5.18333,3485
5.19167,3493
5.20000,3502
5.20833,3512
5.21667,3522
5.22500,3531
5.23333,3542
5.24167,3552
5.25000,3563
5.25833,3572
5.26667,3581
5.27500,3589
5.28333,3597
5.29167,3605
5.30000,3615
5.30833,3624
5.31667,3633
5.32500,3642
5.33333,3650
5.34167,3659
5.35000,3668
5.35833,3678
5.36667,3687
5.37500,3696
5.38333,3705
5.39167,3716
5.40000,3727
5.40833,3738
5.41667,3749
5.42500,3761
5.43333,3773
5.44167,3784
5.45000,3798
5.45833,3812
5.46667,3826
5.47500,3838
5.48333,3849
5.49167,3859
5.50000,3867
5.50833,3874
5.51667,3881
5.52500,3888
5.53333,3896
5.54167,3904
5.55000,3913
5.55833,3923
5.56667,3932
5.57500,3941
5.58333,3951
5.59167,3960
5.60000,3968
5.60833,3979
5.61667,3988
5.62500,3998
5.63333,4007
5.64167,4017
5.65000,4027
5.65833,4035
5.66667,4043
5.67500,4050
5.68333,4058
5.69167,4066
5.70000,4074
5.70833,4083
5.71667,4092
5.72500,4100
5.73333,4109
5.74167,4118
5.75000,4126
5.75833,4135
5.76667,4143
5.77500,4152
5.78333,4160
5.79167,4168
5.80000,4177
5.80833,4185
5.81667,4193
5.82500,4202
5.83333,4211
5.84167,4220
5.85000,4228
5.85833,4237
5.86667,4246
5.87500,4254
5.88333,4261
5.89167,4267
5.90000,4273
5.90833,4281
5.91667,4289
5.92500,4298
5.93333,4306
5.94167,4314
5.95000,4324
5.95833,4334
5.96667,4342
5.97500,4350
5.98333,4358
5.99167,4365
6.00000,4373
6.00833,4380
6.01667,4387
6.02500,4394
6.03333,4400
6.04167,4407
6.05000,4413
6.05833,4420
6.06667,4425
6.07500,4431
6.08333,4435
6.09167,4441
6.10000,4447
6.10833,4456
6.11667,4467
6.12500,4479
6.13333,4490
6.14167,4500
6.15000,4509
6.15833,4514
6.16667,4517
6.17500,4519
6.18333,4522
6.19167,4525
6.20000,4528
6.20833,4533
6.21667,4539
6.22500,4545
6.23333,4551
6.24167,4558
6.25000,4564
6.25833,4573
6.26667,4581
6.27500,4590
6.28333,4599
6.29167,4609
6.30000,4619
6.30833,4629
6.31667,4640
6.32500,4652
6.33333,4663
6.34167,4674
6.35000,4685
6.35833,4697
6.36667,4707
6.37500,4717
6.38333,4727
6.39167,4735
6.40000,4743
6.40833,4751
6.41667,4758
6.42500,4765
6.43333,4771
6.44167,4777
6.45000,4782
6.45833,4787
6.46667,4792
6.47500,4798
6.48333,4805
6.49167,4812
6.50000,4820
6.50833,4830
6.51667,4841
6.52500,4855
6.53333,4870
6.54167,4886
6.55000,4904
6.55833,4923
6.56667,4943
6.57500,4963
6.58333,4983
6.59167,5002
6.60000,5020
6.60833,5039
6.61667,5059
6.62500,5080
6.63333,5102
6.64167,5124
6.65000,5145
6.65833,5165
6.66667,5184
6.67500,5201
6.68333,5220
6.69167,5244
6.70000,5287
6.70833,5381
6.71667,5589
6.72500,6002
6.73333,6700
6.74167,7672
6.75000,8756
6.75833,9665
6.76667,10129
6.77500,10031
6.78333,9456
6.79167,8613
6.80000,7724
6.80833,6941
6.81667,6328
6.82500,5890
6.83333,5595
6.84167,5406
6.85000,5288
6.85833,5216
6.86667,5172
6.87500,5142
6.88333,5121
6.89167,5104
6.90000,5090
6.90833,5077
6.91667,5066
6.92500,5054
6.93333,5042
6.94167,5027
6.95000,5009
6.95833,4987
6.96667,4960
6.97500,4928
6.98333,4890
6.99167,4847
7.00000,4802
7.00833,4753
7.01667,4704
7.02500,4654
7.03333,4603
7.04167,4551
7.05000,4498
7.05833,4441
7.06667,4382
7.07500,4316
7.08333,4243
7.09167,4159
7.10000,4063
7.10833,3950
7.11667,3817
7.12500,3658
7.13333,3470
7.14167,3249
7.15000,2994
7.15833,2705
7.16667,2386
7.17500,2042
7.18333,1682
7.19167,1314
7.20000,945
7.20833,580
7.21667,226
7.22500,-111
7.23333,-430
7.24167,-731
7.25000,-1016
7.25833,-1282
7.26667,-1524
7.27500,-1741
7.28333,-1928
7.29167,-2083
7.30000,-2204
7.30833,-2294
7.31667,-2352
7.32500,-2383
7.33333,-2389
7.34167,-2374
7.35000,-2344
7.35833,-2302
7.36667,-2252
7.37500,-2197
7.38333,-2140
7.39167,-2083
7.40000,-2026
7.40833,-1971
7.41667,-1917
7.42500,-1865
7.43333,-1816
7.44167,-1769
7.45000,-1726
7.45833,-1686
7.46667,-1651
7.47500,-1619
7.48333,-1589
7.49167,-1561
7.50000,-1535
7.50833,-1511
7.51667,-1488
7.52500,-1466
7.53333,-1445
7.54167,-1426
7.55000,-1408
7.55833,-1391
7.56667,-1375
7.57500,-1360
7.58333,-1346
7.59167,-1332
7.60000,-1319
7.60833,-1308
7.61667,-1298
7.62500,-1290
7.63333,-1281
7.64167,-1273
7.65000,-1266
7.65833,-1261
7.66667,-1255
7.67500,-1251
7.68333,-1246
7.69167,-1241
7.70000,-1237
7.70833,-1233
7.71667,-1231
7.72500,-1229
7.73333,-1227
7.74167,-1226
7.75000,-1224
7.75833,-1222
7.76667,-1220
7.77500,-1216
7.78333,-1213
7.79167,-1210
7.80000,-1207
7.80833,-1205
7.81667,-1202
7.82500,-1199
7.83333,-1197
7.84167,-1195
7.85000,-1194
7.85833,-1192
7.86667,-1191
7.87500,-1189
7.88333,-1188
7.89167,-1187
7.90000,-1185
7.90833,-1183
7.91667,-1182
7.92500,-1181
7.93333,-1181
7.94167,-1181
7.95000,-1182
7.95833,-1182
7.96667,-1183
7.97500,-1182
7.98333,-1182
7.99167,-1182
8.00000,-1181
8.00833,-1180
8.01667,-1179
8.02500,-1179
8.03333,-1177
8.04167,-1176
8.05000,-1174
8.05833,-1173
8.06667,-1172
8.07500,-1169
8.08333,-1167
8.09167,-1166
8.10000,-1165
8.10833,-1164
8.11667,-1163
8.12500,-1162
8.13333,-1161
8.14167,-1161
8.15000,-1161
8.15833,-1160
8.16667,-1160
8.17500,-1159
8.18333,-1159
8.19167,-1158
8.20000,-1157
8.20833,-1156
8.21667,-1156
8.22500,-1156
8.23333,-1156
8.24167,-1155
8.25000,-1155
8.25833,-1154
8.26667,-1153
8.27500,-1152
8.28333,-1149
8.29167,-1146
8.30000,-1144
8.30833,-1142
8.31667,-1139
8.32500,-1135
8.33333,-1132
8.34167,-1129
8.35000,-1126
8.35833,-1123
8.36667,-1119
8.37500,-1115
8.38333,-1110
8.39167,-1106
8.40000,-1101
8.40833,-1095
8.41667,-1090
8.42500,-1083
8.43333,-1076
8.44167,-1069
8.45000,-1061
8.45833,-1053
8.46667,-1044
8.47500,-1035
8.48333,-1026
8.49167,-1016
8.50000,-1005
8.50833,-993
8.51667,-981
8.52500,-968
8.53333,-954
8.54167,-941
8.55000,-926
8.55833,-910
8.56667,-894
8.57500,-876
8.58333,-858
8.59167,-840
8.60000,-823
8.60833,-807
8.61667,-788
8.62500,-768
8.63333,-746
8.64167,-724
8.65000,-703
8.65833,-681
8.66667,-659
8.67500,-636
8.68333,-614
8.69167,-591
8.70000,-568
8.70833,-546
8.71667,-525
8.72500,-503
8.73333,-482
8.74167,-462
8.75000,-442
8.75833,-423
8.76667,-404
8.77500,-386
8.78333,-367
8.79167,-349
8.80000,-333
8.80833,-315
8.81667,-298
8.82500,-281
8.83333,-265
8.84167,-251
8.85000,-238
8.85833,-225
8.86667,-212
8.87500,-200
8.88333,-188
8.89167,-178
8.90000,-168
8.90833,-158
8.91667,-148
8.92500,-139
8.93333,-130
8.94167,-122
8.95000,-115
8.95833,-109
8.96667,-103
8.97500,-97
8.98333,-91
8.99167,-85
9.00000,-80
9.00833,-74
9.01667,-68
9.02500,-63
9.03333,-59
9.04167,-55
9.05000,-51
9.05833,-46
9.06667,-42
9.07500,-38
9.08333,-34
9.09167,-31
9.10000,-27
9.10833,-24
9.11667,-21
9.12500,-19
9.13333,-17
9.14167,-14
9.15000,-12
9.15833,-10
9.16667,-8
9.17500,-7
9.18333,-5
9.19167,-3
9.20000,-2
9.20833,-1
9.21667,-0
9.22500,1
9.23333,3
9.24167,4
9.25000,5
9.25833,5
9.26667,5
9.27500,7
9.28333,10
9.29167,11
9.30000,12
9.30833,13
9.31667,15
9.32500,17
9.33333,20
9.34167,21
9.35000,22
9.35833,24
9.36667,26
9.37500,28
9.38333,30
9.39167,31
9.40000,33
9.40833,35
9.41667,37
9.42500,39
9.43333,40
9.44167,40
9.45000,40
9.45833,40
9.46667,41
9.47500,41
9.48333,41
9.49167,41
9.50000,41
9.50833,42
9.51667,42
9.52500,43
9.53333,44
9.54167,44
9.55000,44
9.55833,45
9.56667,45
9.57500,47
9.58333,48
9.59167,49
9.60000,49
9.60833,50
9.61667,50
9.62500,51
9.63333,52
9.64167,53
9.65000,54
9.65833,54
9.66667,55
9.67500,55
9.68333,56
9.69167,57
9.70000,57
9.70833,58
9.71667,59
9.72500,59
9.73333,60
9.74167,61
9.75000,61
9.75833,61
9.76667,61
9.77500,61
9.78333,61
9.79167,62
9.80000,62
9.80833,62
9.81667,62
9.82500,62
9.83333,63
9.84167,65
9.85000,66
9.85833,68
9.86667,70
9.87500,72
9.88333,75
9.89167,76
9.90000,77
9.90833,79
9.91667,81
9.92500,82
9.93333,81
9.94167,80
9.95000,79
9.95833,78
9.96667,78
9.97500,77
9.98333,77
9.99167,77
10.00000,77

