[Header]
Application Name,LabSolutions
Version,5.128 SP1
Data File Name,C:\LabSolutions\Sample\LC\Demo_Data-005.lcd
Output Date,2026/03/04
Output Time,15:46:50

[Configuration]
Instrument Name,‘•’u1
Instrument #,-1
Line #,1
# of Detectors,1
Detector ID,Detector A
Detector Name,ŚźŹoŠíA
# of Channels,1

[Peak Table(Detector A)]
# of Peaks,4
Peak#,R.Time,I.Time,F.Time,Area,Height,A/H,Conc.,Mark,ID#,Name,k',Plate #,Plate Ht.,Tailing,Resolution,Sep.Factor,Area Ratio,Height Ratio,Conc. %,Norm Conc.
1,2.656,2.533,2.825,58928,10414,5.659,0.804,   ,1,Methyl paraben,0.000,4255,35.251,1.195,0.000,0.000,0,0,25.243,25.243
2,3.246,3.108,3.408,64286,12151,5.291,0.776,   ,2,Ethyl paraben,0.222,7117,21.077,1.172,3.724,0.000,0,0,24.357,24.357
3,3.959,3.833,4.100,42947,9138,4.700,0.804,   ,3,Propyl paraben,0.491,13059,11.486,1.172,4.876,2.209,0,0,25.244,25.244
4,4.654,4.533,4.792,45852,10652,4.304,0.801,   ,4,Butyl paraben,0.752,21408,7.007,1.184,5.228,1.533,0,0,25.156,25.156

[LC Chromatogram(Detector A-Ch1)]
Interval(msec),500
# of Points,1201
Start Time(min),0.000
End Time(min),10.000
Intensity Units,mV
Intensity Multiplier,0.001
Wavelength(nm),254
R.Time (min),Intensity
0.00000,-16
0.00833,-16
0.01667,0
0.02500,1
0.03333,1
0.04167,2
0.05000,3
0.05833,4
0.06667,6
0.07500,7
0.08333,9
0.09167,10
0.10000,12
0.10833,13
0.11667,15
0.12500,16
0.13333,16
0.14167,17
0.15000,18
0.15833,18
0.16667,18
0.17500,20
0.18333,20
0.19167,20
0.20000,20
0.20833,20
0.21667,19
0.22500,17
0.23333,17
0.24167,17
0.25000,17
0.25833,17
0.26667,17
0.27500,17
0.28333,17
0.29167,18
0.30000,18
0.30833,18
0.31667,18
0.32500,18
0.33333,20
0.34167,21
0.35000,24
0.35833,26
0.36667,27
0.37500,28
0.38333,28
0.39167,28
0.40000,29
0.40833,29
0.41667,28
0.42500,27
0.43333,27
0.44167,26
0.45000,25
0.45833,24
0.46667,23
0.47500,22
0.48333,22
0.49167,21
0.50000,19
0.50833,18
0.51667,17
0.52500,16
0.53333,14
0.54167,12
0.55000,10
0.55833,8
0.56667,8
0.57500,7
0.58333,7
0.59167,7
0.60000,7
0.60833,6
0.61667,6
0.62500,6
0.63333,6
0.64167,7
0.65000,7
0.65833,8
0.66667,9
0.67500,10
0.68333,10
0.69167,10
0.70000,11
0.70833,11
0.71667,10
0.72500,11
0.73333,11
0.74167,11
0.75000,11
0.75833,9
0.76667,9
0.77500,9
0.78333,9
0.79167,9
0.80000,10
0.80833,10
0.81667,11
0.82500,13
0.83333,14
0.84167,15
0.85000,16
0.85833,18
0.86667,19
0.87500,19
0.88333,21
0.89167,22
0.90000,24
0.90833,25
0.91667,25
0.92500,26
0.93333,26
0.94167,26
0.95000,27
0.95833,26
0.96667,25
0.97500,23
0.98333,23
0.99167,21
1.00000,22
1.00833,22
1.01667,20
1.02500,19
1.03333,18
1.04167,18
1.05000,19
1.05833,19
1.06667,18
1.07500,17
1.08333,16
1.09167,15
1.10000,14
1.10833,14
1.11667,14
1.12500,15
1.13333,15
1.14167,15
1.15000,15
1.15833,15
1.16667,14
1.17500,13
1.18333,12
1.19167,13
1.20000,13
1.20833,15
1.21667,15
1.22500,14
1.23333,14
1.24167,14
1.25000,15
1.25833,16
1.26667,16
1.27500,17
1.28333,17
1.29167,18
1.30000,18
1.30833,19
1.31667,21
1.32500,22
1.33333,22
1.34167,23
1.35000,24
1.35833,25
1.36667,24
1.37500,23
1.38333,22
1.39167,22
1.40000,21
1.40833,21
1.41667,21
1.42500,20
1.43333,21
1.44167,23
1.45000,25
1.45833,29
1.46667,32
1.47500,36
1.48333,39
1.49167,42
1.50000,45
1.50833,48
1.51667,49
1.52500,47
1.53333,45
1.54167,45
1.55000,70
1.55833,173
1.56667,362
1.57500,591
1.58333,811
1.59167,982
1.60000,1071
1.60833,1120
1.61667,1198
1.62500,1287
1.63333,1311
1.64167,1240
1.65000,1103
1.65833,955
1.66667,828
1.67500,718
1.68333,568
1.69167,327
1.70000,9
1.70833,-311
1.71667,-557
1.72500,-688
1.73333,-708
1.74167,-642
1.75000,-530
1.75833,-403
1.76667,-285
1.77500,-188
1.78333,-114
1.79167,-60
1.80000,-22
1.80833,3
1.81667,21
1.82500,32
1.83333,40
1.84167,45
1.85000,48
1.85833,51
1.86667,54
1.87500,55
1.88333,54
1.89167,53
1.90000,50
1.90833,49
1.91667,46
1.92500,44
1.93333,42
1.94167,41
1.95000,41
1.95833,42
1.96667,42
1.97500,43
1.98333,45
1.99167,45
2.00000,46
2.00833,46
2.01667,45
2.02500,45
2.03333,44
2.04167,43
2.05000,43
2.05833,44
2.06667,44
2.07500,43
2.08333,41
2.09167,38
2.10000,37
2.10833,36
2.11667,35
2.12500,34
2.13333,33
2.14167,33
2.15000,33
2.15833,33
2.16667,33
2.17500,32
2.18333,32
2.19167,33
2.20000,34
2.20833,35
2.21667,36
2.22500,37
2.23333,38
2.24167,39
2.25000,39
2.25833,38
2.26667,37
2.27500,36
2.28333,34
2.29167,34
2.30000,34
2.30833,33
2.31667,32
2.32500,31
2.33333,29
2.34167,28
2.35000,28
2.35833,28
2.36667,29
2.37500,29
2.38333,28
2.39167,27
2.40000,27
2.40833,29
2.41667,31
2.42500,33
2.43333,36
2.44167,39
2.45000,43
2.45833,46
2.46667,49
2.47500,52
2.48333,56
2.49167,60
2.50000,64
2.50833,68
2.51667,71
2.52500,75
2.53333,82
2.54167,95
2.55000,121
2.55833,174
2.56667,282
2.57500,488
2.58333,855
2.59167,1454
2.60000,2342
2.60833,3535
2.61667,4980
2.62500,6552
2.63333,8072
2.64167,9353
2.65000,10235
2.65833,10622
2.66667,10495
2.67500,9906
2.68333,8960
2.69167,7789
2.70000,6527
2.70833,5291
2.71667,4165
2.72500,3198
2.73333,2410
2.74167,1795
2.75000,1335
2.75833,1003
2.76667,771
2.77500,616
2.78333,515
2.79167,452
2.80000,414
2.80833,393
2.81667,383
2.82500,381
2.83333,384
2.84167,388
2.85000,395
2.85833,402
2.86667,409
2.87500,418
2.88333,426
2.89167,435
2.90000,444
2.90833,454
2.91667,464
2.92500,474
2.93333,484
2.94167,493
2.95000,504
2.95833,513
2.96667,524
2.97500,536
2.98333,547
2.99167,560
3.00000,575
3.00833,592
3.01667,611
3.02500,634
3.03333,662
3.04167,694
3.05000,730
3.05833,770
3.06667,810
3.07500,849
3.08333,885
3.09167,917
3.10000,943
3.10833,963
3.11667,977
3.12500,988
3.13333,999
3.14167,1022
3.15000,1070
3.15833,1173
3.16667,1383
3.17500,1774
3.18333,2432
3.19167,3436
3.20000,4822
3.20833,6539
3.21667,8438
3.22500,10292
3.23333,11842
3.24167,12866
3.25000,13230
3.25833,12916
3.26667,12010
3.27500,10680
3.28333,9122
3.29167,7525
3.30000,6038
3.30833,4752
3.31667,3711
3.32500,2911
3.33333,2325
3.34167,1915
3.35000,1638
3.35833,1459
3.36667,1346
3.37500,1279
3.38333,1243
3.39167,1225
3.40000,1218
3.40833,1217
3.41667,1221
3.42500,1229
3.43333,1238
3.44167,1248
3.45000,1260
3.45833,1273
3.46667,1285
3.47500,1299
3.48333,1313
3.49167,1328
3.50000,1343
3.50833,1358
3.51667,1374
3.52500,1390
3.53333,1406
3.54167,1422
3.55000,1437
3.55833,1452
3.56667,1468
3.57500,1484
3.58333,1499
3.59167,1515
3.60000,1529
3.60833,1544
3.61667,1558
3.62500,1571
3.63333,1584
3.64167,1598
3.65000,1610
3.65833,1624
3.66667,1637
3.67500,1650
3.68333,1664
3.69167,1677
3.70000,1691
3.70833,1705
3.71667,1718
3.72500,1731
3.73333,1744
3.74167,1757
3.75000,1770
3.75833,1783
3.76667,1795
3.77500,1807
3.78333,1819
3.79167,1832
3.80000,1845
3.80833,1857
3.81667,1869
3.82500,1881
3.83333,1893
3.84167,1905
3.85000,1921
3.85833,1941
3.86667,1974
3.87500,2035
3.88333,2153
3.89167,2383
3.90000,2801
3.90833,3499
3.91667,4543
3.92500,5928
3.93333,7530
3.94167,9119
3.95000,10407
3.95833,11147
3.96667,11214
3.97500,10636
3.98333,9573
3.99167,8248
4.00000,6884
4.00833,5642
4.01667,4614
4.02500,3826
4.03333,3258
4.04167,2870
4.05000,2618
4.05833,2462
4.06667,2369
4.07500,2319
4.08333,2294
4.09167,2283
4.10000,2281
4.10833,2285
4.11667,2291
4.12500,2298
4.13333,2307
4.14167,2316
4.15000,2325
4.15833,2336
4.16667,2346
4.17500,2357
4.18333,2368
4.19167,2380
4.20000,2392
4.20833,2404
4.21667,2418
4.22500,2432
4.23333,2448
4.24167,2465
4.25000,2482
4.25833,2501
4.26667,2523
4.27500,2545
4.28333,2569
4.29167,2594
4.30000,2620
4.30833,2645
4.31667,2668
4.32500,2689
4.33333,2707
4.34167,2721
4.35000,2730
4.35833,2734
4.36667,2732
4.37500,2725
4.38333,2715
4.39167,2703
4.40000,2690
4.40833,2678
4.41667,2670
4.42500,2664
4.43333,2661
4.44167,2660
4.45000,2661
4.45833,2664
4.46667,2668
4.47500,2674
4.48333,2679
4.49167,2685
4.50000,2692
4.50833,2699
4.51667,2705
4.52500,2714
4.53333,2723
4.54167,2734
4.55000,2746
4.55833,2765
4.56667,2797
4.57500,2859
4.58333,2987
4.59167,3251
4.60000,3760
4.60833,4644
4.61667,6002
4.62500,7809
4.63333,9851
4.64167,11748
4.65000,13072
4.65833,13523
4.66667,13043
4.67500,11822
4.68333,10187
4.69167,8470
4.70000,6920
4.70833,5663
4.71667,4726
4.72500,4074
4.73333,3645
4.74167,3375
4.75000,3213
4.75833,3121
4.76667,3073
4.77500,3049
4.78333,3039
4.79167,3038
4.80000,3043
4.80833,3049
4.81667,3059
4.82500,3069
4.83333,3079
4.84167,3089
4.85000,3099
4.85833,3108
4.86667,3119
4.87500,3130
4.88333,3140
4.89167,3151
4.90000,3161
4.90833,3172
4.91667,3183
4.92500,3195
4.93333,3207
4.94167,3219
4.95000,3229
4.95833,3239
4.96667,3250
4.97500,3261
4.98333,3272
4.99167,3282
5.00000,3293
5.00833,3303
5.01667,3314
5.02500,3326
5.03333,3338
5.04167,3351
5.05000,3363
5.05833,3374
5.06667,3386
5.07500,3397
5.08333,3407
5.09167,3418
5.10000,3430
5.10833,3442
5.11667,3454
5.12500,3465
5.13333,3476
5.14167,3487
5.15000,3498
5.15833,3507
5.16667,3517
5.17500,3524
5.18333,3533
5.19167,3541
5.20000,3550
5.20833,3560
5.21667,3570
5.22500,3580
5.23333,3591
5.24167,3603
5.25000,3613
5.25833,3623
5.26667,3634
5.27500,3644
5.28333,3655
5.29167,3667
5.30000,3679
5.30833,3691
5.31667,3702
5.32500,3713
5.33333,3724
5.34167,3736
5.35000,3748
5.35833,3761
5.36667,3773
5.37500,3786
5.38333,3798
5.39167,3808
5.40000,3819
5.40833,3832
5.41667,3844
5.42500,3856
5.43333,3866
5.44167,3878
5.45000,3889
5.45833,3901
5.46667,3912
5.47500,3923
5.48333,3932
5.49167,3941
5.50000,3950
5.50833,3958
5.51667,3967
5.52500,3976
5.53333,3984
5.54167,3992
5.55000,3999
5.55833,4007
5.56667,4015
5.57500,4024
5.58333,4032
5.59167,4041
5.60000,4049
5.60833,4058
5.61667,4066
5.62500,4074
5.63333,4082
5.64167,4091
5.65000,4100
5.65833,4108
5.66667,4115
5.67500,4123
5.68333,4131
5.69167,4138
5.70000,4146
5.70833,4154
5.71667,4162
5.72500,4170
5.73333,4178
5.74167,4186
5.75000,4194
5.75833,4202
5.76667,4210
5.77500,4218
5.78333,4226
5.79167,4234
5.80000,4242
5.80833,4249
5.81667,4256
5.82500,4264
5.83333,4272
5.84167,4281
5.85000,4292
5.85833,4302
5.86667,4311
5.87500,4320
5.88333,4329
5.89167,4336
5.90000,4343
5.90833,4350
5.91667,4357
5.92500,4364
5.93333,4371
5.94167,4379
5.95000,4386
5.95833,4394
5.96667,4401
5.97500,4409
5.98333,4417
5.99167,4426
6.00000,4434
6.00833,4441
6.01667,4448
6.02500,4455
6.03333,4462
6.04167,4468
6.05000,4474
6.05833,4480
6.06667,4486
6.07500,4492
6.08333,4498
6.09167,4504
6.10000,4510
6.10833,4516
6.11667,4524
6.12500,4532
6.13333,4542
6.14167,4554
6.15000,4565
6.15833,4573
6.16667,4579
6.17500,4582
6.18333,4583
6.19167,4583
6.20000,4585
6.20833,4589
6.21667,4593
6.22500,4598
6.23333,4603
6.24167,4608
6.25000,4614
6.25833,4621
6.26667,4628
6.27500,4634
6.28333,4641
6.29167,4647
6.30000,4654
6.30833,4662
6.31667,4670
6.32500,4678
6.33333,4687
6.34167,4696
6.35000,4705
6.35833,4714
6.36667,4725
6.37500,4734
6.38333,4745
6.39167,4757
6.40000,4770
6.40833,4784
6.41667,4797
6.42500,4812
6.43333,4828
6.44167,4843
6.45000,4858
6.45833,4876
6.46667,4893
6.47500,4909
6.48333,4926
6.49167,4945
6.50000,4964
6.50833,4982
6.51667,5000
6.52500,5018
6.53333,5034
6.54167,5049
6.55000,5065
6.55833,5080
6.56667,5097
6.57500,5113
6.58333,5130
6.59167,5146
6.60000,5162
6.60833,5177
6.61667,5191
6.62500,5204
6.63333,5217
6.64167,5231
6.65000,5244
6.65833,5259
6.66667,5274
6.67500,5289
6.68333,5304
6.69167,5318
6.70000,5332
6.70833,5346
6.71667,5364
6.72500,5398
6.73333,5465
6.74167,5582
6.75000,5758
6.75833,5972
6.76667,6174
6.77500,6303
6.78333,6321
6.79167,6229
6.80000,6065
6.80833,5873
6.81667,5693
6.82500,5546
6.83333,5435
6.84167,5357
6.85000,5304
6.85833,5267
6.86667,5242
6.87500,5224
6.88333,5210
6.89167,5196
6.90000,5183
6.90833,5169
6.91667,5155
6.92500,5141
6.93333,5127
6.94167,5112
6.95000,5093
6.95833,5071
6.96667,5044
6.97500,5012
6.98333,4974
6.99167,4932
7.00000,4886
7.00833,4836
7.01667,4783
7.02500,4727
7.03333,4669
7.04167,4610
7.05000,4549
7.05833,4483
7.06667,4413
7.07500,4337
7.08333,4249
7.09167,4149
7.10000,4034
7.10833,3901
7.11667,3745
7.12500,3561
7.13333,3346
7.14167,3097
7.15000,2815
7.15833,2502
7.16667,2163
7.17500,1804
7.18333,1434
7.19167,1061
7.20000,690
7.20833,329
7.21667,-17
7.22500,-347
7.23333,-661
7.24167,-960
7.25000,-1241
7.25833,-1499
7.26667,-1731
7.27500,-1933
7.28333,-2101
7.29167,-2235
7.30000,-2334
7.30833,-2402
7.31667,-2440
7.32500,-2453
7.33333,-2442
7.34167,-2414
7.35000,-2372
7.35833,-2322
7.36667,-2268
7.37500,-2211
7.38333,-2156
7.39167,-2100
7.40000,-2045
7.40833,-1991
7.41667,-1937
7.42500,-1885
7.43333,-1837
7.44167,-1792
7.45000,-1750
7.45833,-1711
7.46667,-1675
7.47500,-1642
7.48333,-1611
7.49167,-1583
7.50000,-1558
7.50833,-1536
7.51667,-1515
7.52500,-1497
7.53333,-1480
7.54167,-1464
7.55000,-1449
7.55833,-1436
7.56667,-1424
7.57500,-1412
7.58333,-1402
7.59167,-1393
7.60000,-1386
7.60833,-1378
7.61667,-1371
7.62500,-1364
7.63333,-1357
7.64167,-1351
7.65000,-1347
7.65833,-1341
7.66667,-1336
7.67500,-1331
7.68333,-1327
7.69167,-1322
7.70000,-1317
7.70833,-1312
7.71667,-1307
7.72500,-1303
7.73333,-1299
7.74167,-1297
7.75000,-1295
7.75833,-1292
7.76667,-1289
7.77500,-1285
7.78333,-1282
7.79167,-1279
7.80000,-1276
7.80833,-1272
7.81667,-1269
7.82500,-1267
7.83333,-1264
7.84167,-1262
7.85000,-1261
7.85833,-1259
7.86667,-1258
7.87500,-1256
7.88333,-1256
7.89167,-1254
7.90000,-1253
7.90833,-1251
7.91667,-1250
7.92500,-1250
7.93333,-1249
7.94167,-1248
7.95000,-1247
7.95833,-1248
7.96667,-1248
7.97500,-1248
7.98333,-1248
7.99167,-1247
8.00000,-1248
8.00833,-1249
8.01667,-1249
8.02500,-1249
8.03333,-1250
8.04167,-1251
8.05000,-1252
8.05833,-1252
8.06667,-1252
8.07500,-1253
8.08333,-1252
8.09167,-1250
8.10000,-1249
8.10833,-1248
8.11667,-1246
8.12500,-1245
8.13333,-1244
8.14167,-1242
8.15000,-1240
8.15833,-1238
8.16667,-1238
8.17500,-1237
8.18333,-1236
8.19167,-1234
8.20000,-1231
8.20833,-1229
8.21667,-1228
8.22500,-1226
8.23333,-1224
8.24167,-1222
8.25000,-1220
8.25833,-1217
8.26667,-1214
8.27500,-1211
8.28333,-1208
8.29167,-1205
8.30000,-1202
8.30833,-1200
8.31667,-1198
8.32500,-1195
8.33333,-1194
8.34167,-1191
8.35000,-1188
8.35833,-1185
8.36667,-1183
8.37500,-1180
8.38333,-1176
8.39167,-1172
8.40000,-1168
8.40833,-1163
8.41667,-1158
8.42500,-1153
8.43333,-1147
8.44167,-1139
8.45000,-1131
8.45833,-1123
8.46667,-1116
8.47500,-1107
8.48333,-1096
8.49167,-1085
8.50000,-1073
8.50833,-1063
8.51667,-1049
8.52500,-1035
8.53333,-1020
8.54167,-1005
8.55000,-990
8.55833,-975
8.56667,-957
8.57500,-939
8.58333,-922
8.59167,-904
8.60000,-884
8.60833,-863
8.61667,-841
8.62500,-819
8.63333,-797
8.64167,-775
8.65000,-752
8.65833,-730
8.66667,-707
8.67500,-682
8.68333,-659
8.69167,-636
8.70000,-613
8.70833,-591
8.71667,-568
8.72500,-545
8.73333,-523
8.74167,-501
8.75000,-480
8.75833,-459
8.76667,-439
8.77500,-419
8.78333,-399
8.79167,-380
8.80000,-362
8.80833,-345
8.81667,-329
8.82500,-314
8.83333,-299
8.84167,-284
8.85000,-271
8.85833,-257
8.86667,-246
8.87500,-234
8.88333,-223
8.89167,-212
8.90000,-202
8.90833,-193
8.91667,-182
8.92500,-172
8.93333,-162
8.94167,-154
8.95000,-145
8.95833,-137
8.96667,-129
8.97500,-121
8.98333,-114
8.99167,-107
9.00000,-100
9.00833,-94
9.01667,-89
9.02500,-84
9.03333,-79
9.04167,-74
9.05000,-70
9.05833,-66
9.06667,-62
9.07500,-57
9.08333,-54
9.09167,-50
9.10000,-46
9.10833,-43
9.11667,-40
9.12500,-37
9.13333,-35
9.14167,-34
9.15000,-32
9.15833,-30
9.16667,-27
9.17500,-25
9.18333,-23
9.19167,-20
9.20000,-17
9.20833,-14
9.21667,-12
9.22500,-11
9.23333,-10
9.24167,-8
9.25000,-6
9.25833,-6
9.26667,-5
9.27500,-4
9.28333,-3
9.29167,-3
9.30000,-2
9.30833,-2
9.31667,-0
9.32500,1
9.33333,2
9.34167,2
9.35000,3
9.35833,4
9.36667,6
9.37500,9
9.38333,10
9.39167,11
9.40000,13
9.40833,14
9.41667,16
9.42500,18
9.43333,20
9.44167,22
9.45000,22
9.45833,23
9.46667,25
9.47500,25
9.48333,24
9.49167,24
9.50000,24
9.50833,25
9.51667,27
9.52500,28
9.53333,28
9.54167,27
9.55000,27
9.55833,28
9.56667,29
9.57500,30
9.58333,32
9.59167,33
9.60000,33
9.60833,34
9.61667,35
9.62500,36
9.63333,37
9.64167,38
9.65000,40
9.65833,40
9.66667,40
9.67500,40
9.68333,40
9.69167,39
9.70000,39
9.70833,39
9.71667,40
9.72500,42
9.73333,43
9.74167,43
9.75000,43
9.75833,44
9.76667,45
9.77500,45
9.78333,46
9.79167,46
9.80000,47
9.80833,48
9.81667,49
9.82500,50
9.83333,51
9.84167,50
9.85000,50
9.85833,50
9.86667,50
9.87500,50
9.88333,49
9.89167,49
9.90000,49
9.90833,50
9.91667,51
9.92500,52
9.93333,52
9.94167,52
9.95000,52
9.95833,51
9.96667,51
9.97500,50
9.98333,50
9.99167,50
10.00000,49

