[Header]
Application Name,LabSolutions
Version,5.128 SP1
Data File Name,C:\LabSolutions\Sample\LC\Demo_Data-001.lcd
Output Date,2026/03/04
Output Time,15:43:16

[File Information]
Type,Data File
Generated,2010/04/19 13:58:43
Generated by,System Administrator
Modified,2017/02/21 20:27:06
Modified by,System Administrator

[Sample Information]
Operator Name,shimadzu
Acquired,2003/01/16 16:42:31
Sample Type,1:Standard
Level,1
Sample Name,STD
Sample ID,1
ISTD Amount1,1
ISTD Amount2,1
ISTD Amount3,1
ISTD Amount4,1
ISTD Amount5,1
ISTD Amount6,1
ISTD Amount7,1
ISTD Amount8,1
ISTD Amount9,1
ISTD Amount10,1
ISTD Amount11,1
ISTD Amount12,1
ISTD Amount13,1
ISTD Amount14,1
ISTD Amount15,1
ISTD Amount16,1
ISTD Amount17,1
ISTD Amount18,1
ISTD Amount19,1
ISTD Amount20,1
ISTD Amount21,1
ISTD Amount22,1
ISTD Amount23,1
ISTD Amount24,1
ISTD Amount25,1
ISTD Amount26,1
ISTD Amount27,1
ISTD Amount28,1
ISTD Amount29,1
ISTD Amount30,1
ISTD Amount31,1
ISTD Amount32,1
Sample Amount,1
Dilution Factor,1
Vial#,1
Injection Volume,10
Injection Count,1
Bar Code,

[Original Files]
Data File,C:\LabSolutions\Data\Project1\Demo_Data-001.lcd
Method File,C:\LabSolutions\Data\Project1\Demo_Method.lcm
Batch File,C:\LabSolutions\Data\Project1\Demo_Batch.lcb
Report Format File,C:\LabSolutions\Sample\LC\ī¤Ś╩É³āīā|ü[āg_1.lsr

[File Description]


[Configuration]
Instrument Name,æĢÆu1
Instrument #,-1
Line #,1
# of Detectors,1
Detector ID,Detector A
Detector Name,ī¤ÅoŖĒA
# of Channels,1

[Peak Table(Detector A)]
# of Peaks,4
Peak#,R.Time,I.Time,F.Time,Area,Height,A/H,Conc.,Mark,ID#,Name,k',Plate #,Plate Ht.,Tailing,Resolution,Sep.Factor,Area Ratio,Height Ratio,Conc. %,Norm Conc.
1,2.655,2.525,2.825,73510,13040,5.637,1.000,   ,1,Methyl paraben,0.000,4246,35.327,1.194,0.000,0.000,0,0,25.000,25.000
2,3.241,3.008,3.400,83364,15251,5.466,1.000,   ,2,Ethyl paraben,0.221,6959,21.555,1.140,3.684,0.000,0,0,25.000,25.000
3,3.954,3.825,4.100,53565,11457,4.675,1.000,   ,3,Propyl paraben,0.490,12829,11.693,1.168,4.836,2.217,0,0,25.000,25.000
4,4.648,4.525,4.792,57336,13248,4.328,1.000,   ,4,Butyl paraben,0.751,20711,7.243,1.166,5.163,1.534,0,0,25.000,25.000

[LC Chromatogram(Detector A-Ch1)]
Interval(msec),500
# of Points,1201
Start Time(min),0.000
End Time(min),10.000
Intensity Units,mV
Intensity Multiplier,0.001
Wavelength(nm),254
R.Time (min),Intensity
0.00000,-4
0.00833,-4
0.01667,1
0.02500,3
0.03333,5
0.04167,6
0.05000,8
0.05833,10
0.06667,10
0.07500,12
0.08333,13
0.09167,15
0.10000,15
0.10833,16
0.11667,15
0.12500,14
0.13333,13
0.14167,13
0.15000,13
0.15833,13
0.16667,13
0.17500,13
0.18333,13
0.19167,13
0.20000,13
0.20833,14
0.21667,14
0.22500,13
0.23333,13
0.24167,12
0.25000,12
0.25833,12
0.26667,12
0.27500,13
0.28333,13
0.29167,12
0.30000,10
0.30833,8
0.31667,7
0.32500,5
0.33333,5
0.34167,5
0.35000,6
0.35833,7
0.36667,7
0.37500,7
0.38333,6
0.39167,5
0.40000,4
0.40833,4
0.41667,4
0.42500,5
0.43333,5
0.44167,5
0.45000,5
0.45833,6
0.46667,6
0.47500,7
0.48333,7
0.49167,8
0.50000,8
0.50833,8
0.51667,7
0.52500,6
0.53333,6
0.54167,7
0.55000,7
0.55833,6
0.56667,4
0.57500,3
0.58333,3
0.59167,3
0.60000,3
0.60833,3
0.61667,4
0.62500,3
0.63333,2
0.64167,1
0.65000,1
0.65833,2
0.66667,4
0.67500,5
0.68333,5
0.69167,5
0.70000,6
0.70833,7
0.71667,7
0.72500,6
0.73333,6
0.74167,5
0.75000,5
0.75833,3
0.76667,2
0.77500,2
0.78333,1
0.79167,0
0.80000,-0
0.80833,-1
0.81667,-1
0.82500,0
0.83333,1
0.84167,3
0.85000,3
0.85833,4
0.86667,4
0.87500,6
0.88333,7
0.89167,8
0.90000,8
0.90833,8
0.91667,8
0.92500,8
0.93333,8
0.94167,8
0.95000,7
0.95833,7
0.96667,7
0.97500,8
0.98333,7
0.99167,7
1.00000,7
1.00833,8
1.01667,8
1.02500,6
1.03333,5
1.04167,4
1.05000,3
1.05833,3
1.06667,3
1.07500,2
1.08333,1
1.09167,0
1.10000,-1
1.10833,-2
1.11667,-2
1.12500,-3
1.13333,-5
1.14167,-8
1.15000,-10
1.15833,-11
1.16667,-12
1.17500,-12
1.18333,-11
1.19167,-11
1.20000,-11
1.20833,-10
1.21667,-9
1.22500,-9
1.23333,-9
1.24167,-9
1.25000,-10
1.25833,-10
1.26667,-10
1.27500,-10
1.28333,-10
1.29167,-9
1.30000,-8
1.30833,-7
1.31667,-7
1.32500,-7
1.33333,-6
1.34167,-4
1.35000,-2
1.35833,-1
1.36667,1
1.37500,2
1.38333,3
1.39167,4
1.40000,4
1.40833,6
1.41667,8
1.42500,10
1.43333,12
1.44167,15
1.45000,19
1.45833,23
1.46667,26
1.47500,29
1.48333,30
1.49167,32
1.50000,34
1.50833,35
1.51667,35
1.52500,33
1.53333,30
1.54167,31
1.55000,66
1.55833,184
1.56667,377
1.57500,594
1.58333,792
1.59167,940
1.60000,1011
1.60833,1045
1.61667,1111
1.62500,1190
1.63333,1205
1.64167,1126
1.65000,985
1.65833,832
1.66667,702
1.67500,591
1.68333,450
1.69167,227
1.70000,-70
1.70833,-370
1.71667,-600
1.72500,-719
1.73333,-729
1.74167,-658
1.75000,-544
1.75833,-417
1.76667,-299
1.77500,-200
1.78333,-125
1.79167,-71
1.80000,-34
1.80833,-11
1.81667,5
1.82500,14
1.83333,19
1.84167,22
1.85000,24
1.85833,26
1.86667,27
1.87500,26
1.88333,23
1.89167,19
1.90000,16
1.90833,14
1.91667,12
1.92500,12
1.93333,12
1.94167,13
1.95000,14
1.95833,16
1.96667,18
1.97500,20
1.98333,23
1.99167,25
2.00000,27
2.00833,28
2.01667,28
2.02500,28
2.03333,28
2.04167,29
2.05000,30
2.05833,29
2.06667,28
2.07500,27
2.08333,25
2.09167,21
2.10000,17
2.10833,16
2.11667,14
2.12500,13
2.13333,12
2.14167,11
2.15000,10
2.15833,8
2.16667,8
2.17500,8
2.18333,9
2.19167,10
2.20000,13
2.20833,15
2.21667,17
2.22500,18
2.23333,17
2.24167,18
2.25000,18
2.25833,17
2.26667,15
2.27500,15
2.28333,12
2.29167,9
2.30000,7
2.30833,5
2.31667,3
2.32500,1
2.33333,0
2.34167,-1
2.35000,-2
2.35833,-3
2.36667,-2
2.37500,-2
2.38333,-2
2.39167,-2
2.40000,-2
2.40833,-1
2.41667,-1
2.42500,1
2.43333,2
2.44167,4
2.45000,6
2.45833,9
2.46667,12
2.47500,14
2.48333,17
2.49167,21
2.50000,26
2.50833,30
2.51667,35
2.52500,42
2.53333,54
2.54167,73
2.55000,111
2.55833,186
2.56667,339
2.57500,626
2.58333,1131
2.59167,1942
2.60000,3124
2.60833,4682
2.61667,6531
2.62500,8501
2.63333,10361
2.64167,11876
2.65000,12858
2.65833,13206
2.66667,12912
2.67500,12061
2.68333,10794
2.69167,9282
2.70000,7693
2.70833,6164
2.71667,4791
2.72500,3628
2.73333,2689
2.74167,1964
2.75000,1425
2.75833,1042
2.76667,776
2.77500,599
2.78333,483
2.79167,412
2.80000,370
2.80833,346
2.81667,334
2.82500,329
2.83333,329
2.84167,332
2.85000,337
2.85833,343
2.86667,350
2.87500,355
2.88333,362
2.89167,370
2.90000,378
2.90833,386
2.91667,393
2.92500,401
2.93333,411
2.94167,420
2.95000,428
2.95833,437
2.96667,446
2.97500,456
2.98333,465
2.99167,477
3.00000,489
3.00833,505
3.01667,525
3.02500,551
3.03333,585
3.04167,624
3.05000,667
3.05833,714
3.06667,761
3.07500,807
3.08333,849
3.09167,884
3.10000,910
3.10833,928
3.11667,941
3.12500,949
3.13333,964
3.14167,1002
3.15000,1093
3.15833,1287
3.16667,1666
3.17500,2335
3.18333,3403
3.19167,4941
3.20000,6933
3.20833,9241
3.21667,11615
3.22500,13733
3.23333,15290
3.24167,16068
3.25000,15984
3.25833,15101
3.26667,13598
3.27500,11716
3.28333,9704
3.29167,7767
3.30000,6050
3.30833,4627
3.31667,3513
3.32500,2684
3.33333,2093
3.34167,1689
3.35000,1423
3.35833,1253
3.36667,1149
3.37500,1086
3.38333,1052
3.39167,1036
3.40000,1031
3.40833,1032
3.41667,1036
3.42500,1042
3.43333,1048
3.44167,1057
3.45000,1065
3.45833,1074
3.46667,1083
3.47500,1092
3.48333,1101
3.49167,1111
3.50000,1120
3.50833,1130
3.51667,1141
3.52500,1152
3.53333,1164
3.54167,1176
3.55000,1188
3.55833,1199
3.56667,1211
3.57500,1223
3.58333,1235
3.59167,1247
3.60000,1259
3.60833,1272
3.61667,1285
3.62500,1296
3.63333,1307
3.64167,1318
3.65000,1330
3.65833,1340
3.66667,1351
3.67500,1361
3.68333,1371
3.69167,1381
3.70000,1391
3.70833,1401
3.71667,1412
3.72500,1422
3.73333,1430
3.74167,1439
3.75000,1448
3.75833,1458
3.76667,1469
3.77500,1479
3.78333,1490
3.79167,1502
3.80000,1512
3.80833,1522
3.81667,1532
3.82500,1543
3.83333,1556
3.84167,1572
3.85000,1591
3.85833,1622
3.86667,1677
3.87500,1784
3.88333,1999
3.89167,2405
3.90000,3113
3.90833,4225
3.91667,5778
3.92500,7683
3.93333,9703
3.94167,11500
3.95000,12731
3.95833,13167
3.96667,12760
3.97500,11648
3.98333,10091
3.99167,8376
4.00000,6741
4.00833,5337
4.01667,4229
4.02500,3409
4.03333,2838
4.04167,2458
4.05000,2215
4.05833,2068
4.06667,1981
4.07500,1933
4.08333,1909
4.09167,1899
4.10000,1897
4.10833,1899
4.11667,1904
4.12500,1909
4.13333,1916
4.14167,1924
4.15000,1932
4.15833,1941
4.16667,1950
4.17500,1959
4.18333,1967
4.19167,1974
4.20000,1981
4.20833,1988
4.21667,1995
4.22500,2003
4.23333,2010
4.24167,2018
4.25000,2025
4.25833,2033
4.26667,2040
4.27500,2047
4.28333,2053
4.29167,2060
4.30000,2067
4.30833,2074
4.31667,2081
4.32500,2089
4.33333,2096
4.34167,2104
4.35000,2112
4.35833,2120
4.36667,2127
4.37500,2134
4.38333,2142
4.39167,2152
4.40000,2161
4.40833,2171
4.41667,2181
4.42500,2190
4.43333,2201
4.44167,2212
4.45000,2224
4.45833,2237
4.46667,2251
4.47500,2268
4.48333,2286
4.49167,2304
4.50000,2324
4.50833,2345
4.51667,2367
4.52500,2390
4.53333,2416
4.54167,2443
4.55000,2473
4.55833,2512
4.56667,2575
4.57500,2695
4.58333,2942
4.59167,3434
4.60000,4334
4.60833,5794
4.61667,7853
4.62500,10333
4.63333,12817
4.64167,14762
4.65000,15711
4.65833,15478
4.66667,14204
4.67500,12264
4.68333,10094
4.69167,8050
4.70000,6341
4.70833,5036
4.71667,4109
4.72500,3488
4.73333,3090
4.74167,2847
4.75000,2703
4.75833,2623
4.76667,2579
4.77500,2557
4.78333,2548
4.79167,2546
4.80000,2548
4.80833,2554
4.81667,2562
4.82500,2570
4.83333,2578
4.84167,2586
4.85000,2595
4.85833,2604
4.86667,2615
4.87500,2624
4.88333,2635
4.89167,2645
4.90000,2654
4.90833,2665
4.91667,2678
4.92500,2689
4.93333,2699
4.94167,2709
4.95000,2718
4.95833,2727
4.96667,2735
4.97500,2742
4.98333,2750
4.99167,2759
5.00000,2767
5.00833,2777
5.01667,2787
5.02500,2797
5.03333,2807
5.04167,2817
5.05000,2826
5.05833,2835
5.06667,2845
5.07500,2856
5.08333,2866
5.09167,2876
5.10000,2885
5.10833,2895
5.11667,2904
5.12500,2914
5.13333,2922
5.14167,2930
5.15000,2938
5.15833,2946
5.16667,2953
5.17500,2962
5.18333,2970
5.19167,2977
5.20000,2986
5.20833,2994
5.21667,3003
5.22500,3012
5.23333,3021
5.24167,3031
5.25000,3041
5.25833,3051
5.26667,3060
5.27500,3069
5.28333,3078
5.29167,3086
5.30000,3095
5.30833,3104
5.31667,3112
5.32500,3121
5.33333,3130
5.34167,3138
5.35000,3146
5.35833,3155
5.36667,3165
5.37500,3175
5.38333,3185
5.39167,3195
5.40000,3205
5.40833,3215
5.41667,3225
5.42500,3235
5.43333,3245
5.44167,3254
5.45000,3263
5.45833,3273
5.46667,3283
5.47500,3292
5.48333,3301
5.49167,3308
5.50000,3317
5.50833,3325
5.51667,3332
5.52500,3340
5.53333,3348
5.54167,3356
5.55000,3364
5.55833,3371
5.56667,3379
5.57500,3388
5.58333,3397
5.59167,3406
5.60000,3414
5.60833,3422
5.61667,3431
5.62500,3441
5.63333,3450
5.64167,3460
5.65000,3470
5.65833,3479
5.66667,3487
5.67500,3496
5.68333,3505
5.69167,3514
5.70000,3522
5.70833,3531
5.71667,3540
5.72500,3550
5.73333,3560
5.74167,3569
5.75000,3578
5.75833,3587
5.76667,3596
5.77500,3606
5.78333,3617
5.79167,3629
5.80000,3642
5.80833,3655
5.81667,3669
5.82500,3684
5.83333,3699
5.84167,3713
5.85000,3726
5.85833,3739
5.86667,3752
5.87500,3765
5.88333,3778
5.89167,3790
5.90000,3800
5.90833,3809
5.91667,3816
5.92500,3825
5.93333,3834
5.94167,3844
5.95000,3854
5.95833,3864
5.96667,3874
5.97500,3883
5.98333,3891
5.99167,3899
6.00000,3907
6.00833,3915
6.01667,3923
6.02500,3931
6.03333,3940
6.04167,3949
6.05000,3957
6.05833,3967
6.06667,3976
6.07500,3984
6.08333,3993
6.09167,4002
6.10000,4012
6.10833,4022
6.11667,4034
6.12500,4048
6.13333,4061
6.14167,4074
6.15000,4084
6.15833,4090
6.16667,4092
6.17500,4094
6.18333,4095
6.19167,4097
6.20000,4099
6.20833,4102
6.21667,4106
6.22500,4112
6.23333,4117
6.24167,4122
6.25000,4128
6.25833,4133
6.26667,4139
6.27500,4144
6.28333,4150
6.29167,4157
6.30000,4164
6.30833,4172
6.31667,4182
6.32500,4191
6.33333,4201
6.34167,4210
6.35000,4219
6.35833,4229
6.36667,4239
6.37500,4250
6.38333,4262
6.39167,4275
6.40000,4288
6.40833,4303
6.41667,4319
6.42500,4337
6.43333,4356
6.44167,4377
6.45000,4400
6.45833,4423
6.46667,4444
6.47500,4464
6.48333,4480
6.49167,4496
6.50000,4510
6.50833,4523
6.51667,4535
6.52500,4546
6.53333,4557
6.54167,4568
6.55000,4580
6.55833,4591
6.56667,4602
6.57500,4613
6.58333,4624
6.59167,4633
6.60000,4642
6.60833,4651
6.61667,4658
6.62500,4664
6.63333,4670
6.64167,4674
6.65000,4676
6.65833,4676
6.66667,4676
6.67500,4676
6.68333,4676
6.69167,4678
6.70000,4683
6.70833,4699
6.71667,4738
6.72500,4822
6.73333,4972
6.74167,5197
6.75000,5467
6.75833,5718
6.76667,5876
6.77500,5894
6.78333,5779
6.79167,5576
6.80000,5343
6.80833,5127
6.81667,4949
6.82500,4817
6.83333,4726
6.84167,4664
6.85000,4626
6.85833,4601
6.86667,4584
6.87500,4571
6.88333,4560
6.89167,4549
6.90000,4537
6.90833,4525
6.91667,4513
6.92500,4499
6.93333,4486
6.94167,4472
6.95000,4456
6.95833,4436
6.96667,4412
6.97500,4383
6.98333,4350
6.99167,4314
7.00000,4276
7.00833,4235
7.01667,4195
7.02500,4153
7.03333,4110
7.04167,4064
7.05000,4017
7.05833,3969
7.06667,3918
7.07500,3863
7.08333,3802
7.09167,3733
7.10000,3654
7.10833,3562
7.11667,3455
7.12500,3328
7.13333,3177
7.14167,3000
7.15000,2793
7.15833,2555
7.16667,2288
7.17500,1997
7.18333,1689
7.19167,1370
7.20000,1052
7.20833,737
7.21667,427
7.22500,124
7.23333,-166
7.24167,-435
7.25000,-677
7.25833,-895
7.26667,-1098
7.27500,-1290
7.28333,-1473
7.29167,-1644
7.30000,-1794
7.30833,-1918
7.31667,-2015
7.32500,-2084
7.33333,-2127
7.34167,-2146
7.35000,-2144
7.35833,-2124
7.36667,-2090
7.37500,-2047
7.38333,-1999
7.39167,-1948
7.40000,-1894
7.40833,-1840
7.41667,-1787
7.42500,-1734
7.43333,-1683
7.44167,-1633
7.45000,-1586
7.45833,-1542
7.46667,-1500
7.47500,-1463
7.48333,-1429
7.49167,-1397
7.50000,-1368
7.50833,-1342
7.51667,-1317
7.52500,-1294
7.53333,-1273
7.54167,-1253
7.55000,-1234
7.55833,-1217
7.56667,-1201
7.57500,-1187
7.58333,-1173
7.59167,-1162
7.60000,-1152
7.60833,-1142
7.61667,-1133
7.62500,-1123
7.63333,-1115
7.64167,-1108
7.65000,-1103
7.65833,-1099
7.66667,-1095
7.67500,-1090
7.68333,-1085
7.69167,-1080
7.70000,-1076
7.70833,-1072
7.71667,-1069
7.72500,-1066
7.73333,-1062
7.74167,-1058
7.75000,-1055
7.75833,-1052
7.76667,-1048
7.77500,-1045
7.78333,-1043
7.79167,-1040
7.80000,-1037
7.80833,-1034
7.81667,-1031
7.82500,-1027
7.83333,-1024
7.84167,-1021
7.85000,-1019
7.85833,-1018
7.86667,-1017
7.87500,-1014
7.88333,-1012
7.89167,-1010
7.90000,-1008
7.90833,-1005
7.91667,-1004
7.92500,-1003
7.93333,-1003
7.94167,-1003
7.95000,-1002
7.95833,-1001
7.96667,-1002
7.97500,-1002
7.98333,-1002
7.99167,-1002
8.00000,-1003
8.00833,-1004
8.01667,-1004
8.02500,-1004
8.03333,-1005
8.04167,-1005
8.05000,-1006
8.05833,-1005
8.06667,-1005
8.07500,-1005
8.08333,-1004
8.09167,-1003
8.10000,-1002
8.10833,-1001
8.11667,-999
8.12500,-999
8.13333,-998
8.14167,-999
8.15000,-998
8.15833,-998
8.16667,-997
8.17500,-996
8.18333,-995
8.19167,-994
8.20000,-993
8.20833,-992
8.21667,-990
8.22500,-988
8.23333,-986
8.24167,-985
8.25000,-983
8.25833,-982
8.26667,-981
8.27500,-979
8.28333,-977
8.29167,-974
8.30000,-970
8.30833,-967
8.31667,-965
8.32500,-963
8.33333,-961
8.34167,-960
8.35000,-957
8.35833,-955
8.36667,-952
8.37500,-949
8.38333,-947
8.39167,-945
8.40000,-942
8.40833,-938
8.41667,-936
8.42500,-933
8.43333,-929
8.44167,-925
8.45000,-921
8.45833,-915
8.46667,-910
8.47500,-904
8.48333,-899
8.49167,-892
8.50000,-884
8.50833,-876
8.51667,-866
8.52500,-856
8.53333,-845
8.54167,-833
8.55000,-820
8.55833,-807
8.56667,-793
8.57500,-779
8.58333,-764
8.59167,-750
8.60000,-734
8.60833,-719
8.61667,-702
8.62500,-686
8.63333,-669
8.64167,-652
8.65000,-635
8.65833,-617
8.66667,-599
8.67500,-581
8.68333,-563
8.69167,-546
8.70000,-528
8.70833,-509
8.71667,-490
8.72500,-472
8.73333,-454
8.74167,-436
8.75000,-417
8.75833,-399
8.76667,-381
8.77500,-365
8.78333,-349
8.79167,-332
8.80000,-317
8.80833,-301
8.81667,-286
8.82500,-271
8.83333,-258
8.84167,-245
8.85000,-233
8.85833,-221
8.86667,-211
8.87500,-200
8.88333,-190
8.89167,-181
8.90000,-173
8.90833,-165
8.91667,-157
8.92500,-151
8.93333,-145
8.94167,-137
8.95000,-130
8.95833,-123
8.96667,-118
8.97500,-113
8.98333,-108
8.99167,-103
9.00000,-97
9.00833,-92
9.01667,-86
9.02500,-83
9.03333,-79
9.04167,-76
9.05000,-72
9.05833,-68
9.06667,-65
9.07500,-63
9.08333,-60
9.09167,-57
9.10000,-54
9.10833,-52
9.11667,-50
9.12500,-48
9.13333,-45
9.14167,-41
9.15000,-36
9.15833,-32
9.16667,-28
9.17500,-25
9.18333,-22
9.19167,-19
9.20000,-17
9.20833,-15
9.21667,-13
9.22500,-11
9.23333,-9
9.24167,-8
9.25000,-7
9.25833,-7
9.26667,-6
9.27500,-5
9.28333,-5
9.29167,-5
9.30000,-4
9.30833,-3
9.31667,-3
9.32500,-2
9.33333,-2
9.34167,-1
9.35000,-0
9.35833,1
9.36667,2
9.37500,4
9.38333,6
9.39167,7
9.40000,9
9.40833,11
9.41667,12
9.42500,14
9.43333,16
9.44167,17
9.45000,18
9.45833,20
9.46667,22
9.47500,24
9.48333,26
9.49167,26
9.50000,27
9.50833,27
9.51667,28
9.52500,28
9.53333,29
9.54167,31
9.55000,31
9.55833,31
9.56667,31
9.57500,31
9.58333,32
9.59167,33
9.60000,33
9.60833,34
9.61667,35
9.62500,35
9.63333,35
9.64167,36
9.65000,36
9.65833,36
9.66667,36
9.67500,37
9.68333,38
9.69167,38
9.70000,38
9.70833,40
9.71667,41
9.72500,42
9.73333,44
9.74167,44
9.75000,44
9.75833,44
9.76667,45
9.77500,46
9.78333,48
9.79167,49
9.80000,50
9.80833,50
9.81667,51
9.82500,52
9.83333,51
9.84167,51
9.85000,52
9.85833,53
9.86667,54
9.87500,55
9.88333,57
9.89167,59
9.90000,60
9.90833,62
9.91667,62
9.92500,64
9.93333,66
9.94167,67
9.95000,67
9.95833,68
9.96667,68
9.97500,67
9.98333,68
9.99167,69
10.00000,71

