[Header]
Application Name,LabSolutions
Version,5.128 SP1
Data File Name,C:\LabSolutions\Sample\LC\Demo_Data-006.lcd
Output Date,2026/03/04
Output Time,15:47:10

[Configuration]
Instrument Name,‘•’u1
Instrument #,-1
Line #,1
# of Detectors,1
Detector ID,Detector A
Detector Name,ŚźŹoŠíA
# of Channels,1

[Peak Table(Detector A)]
# of Peaks,4
Peak#,R.Time,I.Time,F.Time,Area,Height,A/H,Conc.,Mark,ID#,Name,k',Plate #,Plate Ht.,Tailing,Resolution,Sep.Factor,Area Ratio,Height Ratio,Conc. %,Norm Conc.
1,2.660,2.525,2.858,175519,30759,5.706,2.398,   ,1,Methyl paraben,0.000,4228,35.478,1.202,0.000,0.000,0,0,25.063,25.063
2,3.253,3.108,3.425,192088,36032,5.331,2.378,   ,2,Ethyl paraben,0.223,7060,21.246,1.171,3.723,0.000,0,0,24.852,24.852
3,3.968,3.833,4.133,127901,27158,4.709,2.398,   ,3,Propyl paraben,0.492,13063,11.483,1.176,4.869,2.206,0,0,25.063,25.063
4,4.664,4.533,4.817,136373,31665,4.307,2.395,   ,4,Butyl paraben,0.753,20407,7.350,1.187,5.164,1.532,0,0,25.023,25.023

[LC Chromatogram(Detector A-Ch1)]
Interval(msec),500
# of Points,1201
Start Time(min),0.000
End Time(min),10.000
Intensity Units,mV
Intensity Multiplier,0.001
Wavelength(nm),254
R.Time (min),Intensity
0.00000,23
0.00833,23
0.01667,3
0.02500,2
0.03333,3
0.04167,4
0.05000,5
0.05833,6
0.06667,6
0.07500,7
0.08333,8
0.09167,9
0.10000,10
0.10833,9
0.11667,9
0.12500,9
0.13333,8
0.14167,8
0.15000,6
0.15833,5
0.16667,4
0.17500,3
0.18333,3
0.19167,3
0.20000,3
0.20833,3
0.21667,3
0.22500,4
0.23333,5
0.24167,5
0.25000,6
0.25833,6
0.26667,7
0.27500,6
0.28333,5
0.29167,3
0.30000,1
0.30833,-1
0.31667,-2
0.32500,-2
0.33333,-3
0.34167,-3
0.35000,-2
0.35833,-2
0.36667,-1
0.37500,0
0.38333,1
0.39167,3
0.40000,4
0.40833,6
0.41667,7
0.42500,7
0.43333,8
0.44167,9
0.45000,9
0.45833,9
0.46667,10
0.47500,12
0.48333,13
0.49167,15
0.50000,16
0.50833,17
0.51667,17
0.52500,17
0.53333,19
0.54167,20
0.55000,19
0.55833,19
0.56667,19
0.57500,19
0.58333,18
0.59167,17
0.60000,17
0.60833,17
0.61667,16
0.62500,15
0.63333,13
0.64167,12
0.65000,10
0.65833,9
0.66667,6
0.67500,4
0.68333,2
0.69167,-0
0.70000,-3
0.70833,-5
0.71667,-7
0.72500,-8
0.73333,-9
0.74167,-10
0.75000,-10
0.75833,-12
0.76667,-13
0.77500,-13
0.78333,-12
0.79167,-11
0.80000,-11
0.80833,-12
0.81667,-13
0.82500,-13
0.83333,-13
0.84167,-13
0.85000,-12
0.85833,-12
0.86667,-12
0.87500,-11
0.88333,-10
0.89167,-9
0.90000,-8
0.90833,-8
0.91667,-7
0.92500,-6
0.93333,-6
0.94167,-5
0.95000,-4
0.95833,-3
0.96667,-5
0.97500,-6
0.98333,-7
0.99167,-6
1.00000,-7
1.00833,-7
1.01667,-7
1.02500,-7
1.03333,-6
1.04167,-6
1.05000,-6
1.05833,-6
1.06667,-6
1.07500,-7
1.08333,-6
1.09167,-4
1.10000,-3
1.10833,-2
1.11667,-1
1.12500,-1
1.13333,-2
1.14167,-2
1.15000,-2
1.15833,-2
1.16667,-2
1.17500,-2
1.18333,-1
1.19167,-1
1.20000,-0
1.20833,-0
1.21667,-1
1.22500,-1
1.23333,-2
1.24167,-2
1.25000,-1
1.25833,0
1.26667,2
1.27500,3
1.28333,4
1.29167,4
1.30000,5
1.30833,5
1.31667,6
1.32500,6
1.33333,6
1.34167,7
1.35000,6
1.35833,6
1.36667,5
1.37500,4
1.38333,3
1.39167,3
1.40000,3
1.40833,3
1.41667,5
1.42500,7
1.43333,12
1.44167,18
1.45000,24
1.45833,28
1.46667,29
1.47500,29
1.48333,29
1.49167,30
1.50000,30
1.50833,28
1.51667,25
1.52500,21
1.53333,17
1.54167,16
1.55000,39
1.55833,136
1.56667,321
1.57500,548
1.58333,771
1.59167,946
1.60000,1042
1.60833,1096
1.61667,1178
1.62500,1269
1.63333,1294
1.64167,1224
1.65000,1088
1.65833,940
1.66667,813
1.67500,702
1.68333,554
1.69167,318
1.70000,4
1.70833,-316
1.71667,-563
1.72500,-698
1.73333,-719
1.74167,-655
1.75000,-543
1.75833,-416
1.76667,-297
1.77500,-197
1.78333,-121
1.79167,-65
1.80000,-28
1.80833,-5
1.81667,9
1.82500,17
1.83333,22
1.84167,25
1.85000,27
1.85833,29
1.86667,29
1.87500,27
1.88333,25
1.89167,23
1.90000,21
1.90833,19
1.91667,17
1.92500,15
1.93333,14
1.94167,14
1.95000,13
1.95833,13
1.96667,14
1.97500,15
1.98333,16
1.99167,15
2.00000,14
2.00833,15
2.01667,15
2.02500,14
2.03333,14
2.04167,14
2.05000,15
2.05833,16
2.06667,16
2.07500,15
2.08333,14
2.09167,12
2.10000,9
2.10833,6
2.11667,4
2.12500,4
2.13333,5
2.14167,6
2.15000,9
2.15833,12
2.16667,16
2.17500,19
2.18333,21
2.19167,22
2.20000,23
2.20833,23
2.21667,22
2.22500,20
2.23333,18
2.24167,16
2.25000,14
2.25833,11
2.26667,9
2.27500,9
2.28333,8
2.29167,8
2.30000,9
2.30833,9
2.31667,8
2.32500,8
2.33333,7
2.34167,8
2.35000,8
2.35833,9
2.36667,9
2.37500,9
2.38333,9
2.39167,10
2.40000,11
2.40833,12
2.41667,14
2.42500,15
2.43333,16
2.44167,17
2.45000,17
2.45833,19
2.46667,21
2.47500,23
2.48333,25
2.49167,28
2.50000,32
2.50833,35
2.51667,39
2.52500,44
2.53333,56
2.54167,79
2.55000,128
2.55833,235
2.56667,463
2.57500,920
2.58333,1768
2.59167,3211
2.60000,5443
2.60833,8569
2.61667,12521
2.62500,17025
2.63333,21615
2.64167,25739
2.65000,28880
2.65833,30669
2.66667,30951
2.67500,29789
2.68333,27426
2.69167,24223
2.70000,20578
2.70833,16860
2.71667,13360
2.72500,10270
2.73333,7683
2.74167,5618
2.75000,4036
2.75833,2868
2.76667,2034
2.77500,1457
2.78333,1069
2.79167,814
2.80000,650
2.80833,547
2.81667,484
2.82500,447
2.83333,427
2.84167,416
2.85000,412
2.85833,412
2.86667,414
2.87500,417
2.88333,423
2.89167,430
2.90000,435
2.90833,441
2.91667,449
2.92500,458
2.93333,468
2.94167,478
2.95000,488
2.95833,498
2.96667,509
2.97500,521
2.98333,533
2.99167,546
3.00000,560
3.00833,575
3.01667,594
3.02500,616
3.03333,642
3.04167,673
3.05000,709
3.05833,746
3.06667,786
3.07500,826
3.08333,864
3.09167,898
3.10000,925
3.10833,947
3.11667,964
3.12500,979
3.13333,999
3.14167,1037
3.15000,1120
3.15833,1298
3.16667,1670
3.17500,2396
3.18333,3702
3.19167,5847
3.20000,9043
3.20833,13348
3.21667,18559
3.22500,24182
3.23333,29517
3.24167,33813
3.25000,36461
3.25833,37130
3.26667,35828
3.27500,32867
3.28333,28762
3.29167,24095
3.30000,19402
3.30833,15091
3.31667,11404
3.32500,8435
3.33333,6167
3.34167,4511
3.35000,3351
3.35833,2567
3.36667,2054
3.37500,1729
3.38333,1528
3.39167,1408
3.40000,1339
3.40833,1303
3.41667,1285
3.42500,1279
3.43333,1280
3.44167,1286
3.45000,1296
3.45833,1307
3.46667,1318
3.47500,1330
3.48333,1343
3.49167,1357
3.50000,1370
3.50833,1384
3.51667,1398
3.52500,1412
3.53333,1425
3.54167,1439
3.55000,1453
3.55833,1466
3.56667,1478
3.57500,1491
3.58333,1504
3.59167,1516
3.60000,1528
3.60833,1540
3.61667,1552
3.62500,1565
3.63333,1577
3.64167,1590
3.65000,1602
3.65833,1615
3.66667,1627
3.67500,1639
3.68333,1651
3.69167,1661
3.70000,1672
3.70833,1682
3.71667,1694
3.72500,1705
3.73333,1717
3.74167,1730
3.75000,1743
3.75833,1757
3.76667,1770
3.77500,1783
3.78333,1797
3.79167,1809
3.80000,1821
3.80833,1834
3.81667,1848
3.82500,1862
3.83333,1875
3.84167,1889
3.85000,1907
3.85833,1932
3.86667,1973
3.87500,2049
3.88333,2202
3.89167,2519
3.90000,3153
3.90833,4334
3.91667,6332
3.92500,9352
3.93333,13388
3.94167,18099
3.95000,22810
3.95833,26676
3.96667,28949
3.97500,29235
3.98333,27593
3.99167,24480
4.00000,20559
4.00833,16485
4.01667,12757
4.02500,9652
4.03333,7255
4.04167,5517
4.05000,4320
4.05833,3531
4.06667,3031
4.07500,2724
4.08333,2541
4.09167,2436
4.10000,2377
4.10833,2346
4.11667,2332
4.12500,2326
4.13333,2324
4.14167,2326
4.15000,2330
4.15833,2335
4.16667,2342
4.17500,2351
4.18333,2358
4.19167,2365
4.20000,2374
4.20833,2385
4.21667,2397
4.22500,2410
4.23333,2423
4.24167,2438
4.25000,2455
4.25833,2473
4.26667,2492
4.27500,2510
4.28333,2528
4.29167,2547
4.30000,2566
4.30833,2584
4.31667,2600
4.32500,2612
4.33333,2621
4.34167,2628
4.35000,2632
4.35833,2633
4.36667,2633
4.37500,2631
4.38333,2629
4.39167,2626
4.40000,2624
4.40833,2626
4.41667,2628
4.42500,2632
4.43333,2636
4.44167,2643
4.45000,2651
4.45833,2659
4.46667,2666
4.47500,2673
4.48333,2682
4.49167,2690
4.50000,2696
4.50833,2705
4.51667,2714
4.52500,2723
4.53333,2732
4.54167,2744
4.55000,2759
4.55833,2781
4.56667,2818
4.57500,2887
4.58333,3032
4.59167,3346
4.60000,4017
4.60833,5351
4.61667,7743
4.62500,11520
4.63333,16689
4.64167,22710
4.65000,28506
4.65833,32786
4.66667,34559
4.67500,33528
4.68333,30156
4.69167,25387
4.70000,20242
4.70833,15506
4.71667,11612
4.72500,8671
4.73333,6597
4.74167,5213
4.75000,4330
4.75833,3790
4.76667,3469
4.77500,3283
4.78333,3181
4.79167,3126
4.80000,3098
4.80833,3086
4.81667,3083
4.82500,3084
4.83333,3088
4.84167,3094
4.85000,3102
4.85833,3110
4.86667,3121
4.87500,3132
4.88333,3143
4.89167,3153
4.90000,3164
4.90833,3176
4.91667,3189
4.92500,3202
4.93333,3215
4.94167,3230
4.95000,3243
4.95833,3254
4.96667,3263
4.97500,3270
4.98333,3277
4.99167,3284
5.00000,3290
5.00833,3297
5.01667,3305
5.02500,3314
5.03333,3322
5.04167,3331
5.05000,3340
5.05833,3348
5.06667,3357
5.07500,3366
5.08333,3375
5.09167,3384
5.10000,3393
5.10833,3402
5.11667,3412
5.12500,3422
5.13333,3431
5.14167,3442
5.15000,3452
5.15833,3463
5.16667,3474
5.17500,3484
5.18333,3495
5.19167,3505
5.20000,3515
5.20833,3526
5.21667,3538
5.22500,3552
5.23333,3566
5.24167,3580
5.25000,3595
5.25833,3609
5.26667,3623
5.27500,3637
5.28333,3649
5.29167,3661
5.30000,3672
5.30833,3685
5.31667,3696
5.32500,3708
5.33333,3718
5.34167,3727
5.35000,3737
5.35833,3746
5.36667,3755
5.37500,3764
5.38333,3773
5.39167,3781
5.40000,3790
5.40833,3799
5.41667,3809
5.42500,3818
5.43333,3828
5.44167,3838
5.45000,3849
5.45833,3861
5.46667,3873
5.47500,3884
5.48333,3896
5.49167,3907
5.50000,3917
5.50833,3928
5.51667,3938
5.52500,3947
5.53333,3956
5.54167,3965
5.55000,3975
5.55833,3984
5.56667,3995
5.57500,4006
5.58333,4016
5.59167,4026
5.60000,4035
5.60833,4045
5.61667,4055
5.62500,4065
5.63333,4074
5.64167,4082
5.65000,4090
5.65833,4096
5.66667,4104
5.67500,4112
5.68333,4119
5.69167,4127
5.70000,4135
5.70833,4143
5.71667,4151
5.72500,4158
5.73333,4166
5.74167,4175
5.75000,4183
5.75833,4192
5.76667,4201
5.77500,4211
5.78333,4220
5.79167,4228
5.80000,4237
5.80833,4246
5.81667,4255
5.82500,4264
5.83333,4274
5.84167,4282
5.85000,4290
5.85833,4300
5.86667,4310
5.87500,4320
5.88333,4329
5.89167,4338
5.90000,4347
5.90833,4354
5.91667,4361
5.92500,4368
5.93333,4374
5.94167,4380
5.95000,4386
5.95833,4392
5.96667,4400
5.97500,4409
5.98333,4418
5.99167,4425
6.00000,4432
6.00833,4438
6.01667,4444
6.02500,4450
6.03333,4457
6.04167,4465
6.05000,4473
6.05833,4480
6.06667,4487
6.07500,4495
6.08333,4503
6.09167,4510
6.10000,4516
6.10833,4523
6.11667,4531
6.12500,4539
6.13333,4549
6.14167,4560
6.15000,4572
6.15833,4583
6.16667,4593
6.17500,4600
6.18333,4603
6.19167,4604
6.20000,4604
6.20833,4604
6.21667,4607
6.22500,4610
6.23333,4614
6.24167,4617
6.25000,4621
6.25833,4626
6.26667,4632
6.27500,4637
6.28333,4643
6.29167,4648
6.30000,4654
6.30833,4659
6.31667,4665
6.32500,4672
6.33333,4680
6.34167,4688
6.35000,4695
6.35833,4702
6.36667,4710
6.37500,4718
6.38333,4726
6.39167,4736
6.40000,4746
6.40833,4756
6.41667,4767
6.42500,4781
6.43333,4796
6.44167,4813
6.45000,4831
6.45833,4849
6.46667,4867
6.47500,4887
6.48333,4906
6.49167,4924
6.50000,4944
6.50833,4964
6.51667,4986
6.52500,5006
6.53333,5026
6.54167,5045
6.55000,5064
6.55833,5082
6.56667,5100
6.57500,5117
6.58333,5133
6.59167,5150
6.60000,5166
6.60833,5182
6.61667,5195
6.62500,5208
6.63333,5220
6.64167,5232
6.65000,5243
6.65833,5255
6.66667,5270
6.67500,5286
6.68333,5302
6.69167,5318
6.70000,5333
6.70833,5349
6.71667,5369
6.72500,5404
6.73333,5479
6.74167,5640
6.75000,5945
6.75833,6430
6.76667,7058
6.77500,7697
6.78333,8162
6.79167,8313
6.80000,8128
6.80833,7696
6.81667,7155
6.82500,6628
6.83333,6187
6.84167,5853
6.85000,5619
6.85833,5463
6.86667,5364
6.87500,5302
6.88333,5261
6.89167,5234
6.90000,5213
6.90833,5196
6.91667,5179
6.92500,5163
6.93333,5146
6.94167,5130
6.95000,5113
6.95833,5093
6.96667,5070
6.97500,5042
6.98333,5009
6.99167,4971
7.00000,4927
7.00833,4879
7.01667,4827
7.02500,4772
7.03333,4715
7.04167,4657
7.05000,4597
7.05833,4535
7.06667,4470
7.07500,4399
7.08333,4322
7.09167,4234
7.10000,4132
7.10833,4014
7.11667,3878
7.12500,3719
7.13333,3533
7.14167,3316
7.15000,3067
7.15833,2784
7.16667,2469
7.17500,2129
7.18333,1771
7.19167,1401
7.20000,1028
7.20833,660
7.21667,302
7.22500,-43
7.23333,-373
7.24167,-688
7.25000,-988
7.25833,-1270
7.26667,-1529
7.27500,-1762
7.28333,-1964
7.29167,-2133
7.30000,-2267
7.30833,-2367
7.31667,-2434
7.32500,-2474
7.33333,-2490
7.34167,-2484
7.35000,-2461
7.35833,-2425
7.36667,-2381
7.37500,-2333
7.38333,-2282
7.39167,-2229
7.40000,-2175
7.40833,-2122
7.41667,-2070
7.42500,-2020
7.43333,-1971
7.44167,-1925
7.45000,-1882
7.45833,-1840
7.46667,-1799
7.47500,-1760
7.48333,-1723
7.49167,-1690
7.50000,-1658
7.50833,-1628
7.51667,-1601
7.52500,-1577
7.53333,-1556
7.54167,-1537
7.55000,-1519
7.55833,-1502
7.56667,-1486
7.57500,-1472
7.58333,-1459
7.59167,-1448
7.60000,-1438
7.60833,-1429
7.61667,-1421
7.62500,-1413
7.63333,-1406
7.64167,-1400
7.65000,-1395
7.65833,-1390
7.66667,-1386
7.67500,-1382
7.68333,-1379
7.69167,-1376
7.70000,-1373
7.70833,-1370
7.71667,-1366
7.72500,-1362
7.73333,-1358
7.74167,-1355
7.75000,-1354
7.75833,-1352
7.76667,-1350
7.77500,-1348
7.78333,-1346
7.79167,-1343
7.80000,-1340
7.80833,-1338
7.81667,-1336
7.82500,-1334
7.83333,-1332
7.84167,-1329
7.85000,-1326
7.85833,-1323
7.86667,-1320
7.87500,-1316
7.88333,-1312
7.89167,-1308
7.90000,-1305
7.90833,-1302
7.91667,-1299
7.92500,-1296
7.93333,-1293
7.94167,-1291
7.95000,-1289
7.95833,-1286
7.96667,-1284
7.97500,-1283
7.98333,-1282
7.99167,-1281
8.00000,-1282
8.00833,-1282
8.01667,-1282
8.02500,-1282
8.03333,-1283
8.04167,-1282
8.05000,-1282
8.05833,-1282
8.06667,-1282
8.07500,-1281
8.08333,-1282
8.09167,-1283
8.10000,-1282
8.10833,-1283
8.11667,-1284
8.12500,-1283
8.13333,-1283
8.14167,-1282
8.15000,-1282
8.15833,-1283
8.16667,-1285
8.17500,-1286
8.18333,-1285
8.19167,-1283
8.20000,-1281
8.20833,-1280
8.21667,-1279
8.22500,-1277
8.23333,-1276
8.24167,-1274
8.25000,-1272
8.25833,-1271
8.26667,-1270
8.27500,-1269
8.28333,-1267
8.29167,-1265
8.30000,-1264
8.30833,-1263
8.31667,-1261
8.32500,-1258
8.33333,-1255
8.34167,-1252
8.35000,-1250
8.35833,-1248
8.36667,-1246
8.37500,-1243
8.38333,-1240
8.39167,-1236
8.40000,-1233
8.40833,-1229
8.41667,-1225
8.42500,-1221
8.43333,-1217
8.44167,-1213
8.45000,-1207
8.45833,-1201
8.46667,-1194
8.47500,-1188
8.48333,-1182
8.49167,-1175
8.50000,-1167
8.50833,-1158
8.51667,-1149
8.52500,-1139
8.53333,-1129
8.54167,-1117
8.55000,-1105
8.55833,-1093
8.56667,-1079
8.57500,-1065
8.58333,-1051
8.59167,-1037
8.60000,-1022
8.60833,-1006
8.61667,-989
8.62500,-972
8.63333,-954
8.64167,-936
8.65000,-916
8.65833,-896
8.66667,-875
8.67500,-852
8.68333,-830
8.69167,-807
8.70000,-784
8.70833,-760
8.71667,-736
8.72500,-713
8.73333,-690
8.74167,-667
8.75000,-644
8.75833,-620
8.76667,-597
8.77500,-574
8.78333,-552
8.79167,-530
8.80000,-509
8.80833,-488
8.81667,-467
8.82500,-448
8.83333,-430
8.84167,-414
8.85000,-397
8.85833,-382
8.86667,-367
8.87500,-351
8.88333,-336
8.89167,-321
8.90000,-306
8.90833,-291
8.91667,-277
8.92500,-265
8.93333,-254
8.94167,-242
8.95000,-230
8.95833,-219
8.96667,-209
8.97500,-200
8.98333,-190
8.99167,-181
9.00000,-172
9.00833,-165
9.01667,-158
9.02500,-151
9.03333,-145
9.04167,-139
9.05000,-133
9.05833,-127
9.06667,-122
9.07500,-117
9.08333,-112
9.09167,-107
9.10000,-103
9.10833,-99
9.11667,-95
9.12500,-92
9.13333,-89
9.14167,-86
9.15000,-83
9.15833,-81
9.16667,-79
9.17500,-77
9.18333,-77
9.19167,-78
9.20000,-79
9.20833,-82
9.21667,-85
9.22500,-89
9.23333,-93
9.24167,-98
9.25000,-102
9.25833,-107
9.26667,-111
9.27500,-114
9.28333,-116
9.29167,-116
9.30000,-115
9.30833,-113
9.31667,-110
9.32500,-104
9.33333,-97
9.34167,-89
9.35000,-79
9.35833,-70
9.36667,-59
9.37500,-48
9.38333,-38
9.39167,-27
9.40000,-17
9.40833,-8
9.41667,0
9.42500,8
9.43333,15
9.44167,22
9.45000,28
9.45833,32
9.46667,34
9.47500,37
9.48333,39
9.49167,40
9.50000,42
9.50833,42
9.51667,41
9.52500,39
9.53333,37
9.54167,34
9.55000,32
9.55833,30
9.56667,28
9.57500,25
9.58333,22
9.59167,19
9.60000,16
9.60833,14
9.61667,13
9.62500,11
9.63333,10
9.64167,9
9.65000,8
9.65833,7
9.66667,6
9.67500,6
9.68333,5
9.69167,5
9.70000,4
9.70833,3
9.71667,2
9.72500,0
9.73333,-1
9.74167,-3
9.75000,-4
9.75833,-6
9.76667,-7
9.77500,-9
9.78333,-11
9.79167,-12
9.80000,-14
9.80833,-16
9.81667,-17
9.82500,-18
9.83333,-19
9.84167,-19
9.85000,-19
9.85833,-19
9.86667,-20
9.87500,-19
9.88333,-18
9.89167,-17
9.90000,-16
9.90833,-15
9.91667,-14
9.92500,-12
9.93333,-11
9.94167,-9
9.95000,-7
9.95833,-4
9.96667,-2
9.97500,1
9.98333,4
9.99167,7
10.00000,10

